Time,Interferometric Phase,Sensitivity,PTI Signal
s,rad,1/rad,µrad
0,2.5358500588694555,0.5818230244076272,1.2808745693687278
1,2.501116092644106,0.5789342102988674,2.2080260118024793
2,2.4779055559362737,0.5766142752176255,3.1112615123080514
3,2.4609838604864613,0.5747270613872826,1.2143815061193002
4,2.4451896291708346,0.5728170941435928,1.6035241695429796
5,2.4377917467351926,0.5718733126804052,5.930794367674664
6,2.4415886078855555,0.572361608270478,-0.20838446888952536
7,2.4581676274014,0.5743969889278885,1.9719816754557973
8,2.4937767736045813,0.5782342929227623,2.103267909394325
9,2.5495751485513023,0.5827712345360907,2.8234598145492233
10,2.619353305452095,0.5858911415290418,3.312887172470902
11,2.691442163372837,0.58611956200053,4.2597268353881335
12,2.7516171668775673,0.5839783626880312,2.8366829084538345
13,2.791105217273081,0.5814236882873177,1.5533464066817433
14,2.814031038971511,0.579524268673462,3.924732381453189
15,2.8276820421708564,0.5782485284551826,1.7745682560130105
16,2.8405277141732688,0.5769496380831344,4.595802329222721
17,2.8580847965444653,0.5750204173294142,1.109721741495661
18,2.876590446245912,0.572795108664944,2.581543527577027
19,2.8897791915213356,0.5710893983571727,3.9954000329187656
20,2.895027294539692,0.570383011651626,3.2235489708917577
21,2.8866014198061047,0.5715094772489077,4.134176486230536
22,2.862734201770942,0.5744798183589445,1.5816696661286505
23,2.8270029539286554,0.5783145408611566,2.148986943431786
24,2.78924623116717,0.5815643249585524,3.7243056303991344
25,2.7617882374662663,0.5834072671723326,-0.9023473153956925
26,2.73847760682013,0.5846266951590219,4.760200060656398
27,2.713977003572446,0.5855659618291789,0.9404670044677351
28,2.6940949242300776,0.5860698451433178,-0.03001277416611963
29,2.68147093705179,0.5862695463726211,1.4511876603957619
30,2.674986784346748,0.5863358028762943,2.7634919737494066
31,2.675486533465974,0.5863315730745634,3.4801941152078255
32,2.6862469790448418,0.586204979037562,3.7199945267926737
33,2.700312957164676,0.5859371467504705,3.960848291368053
34,2.707065905750828,0.5857673712376706,4.5338340002864745
35,2.7007980300609193,0.5859258422053909,3.151217453683917
36,2.6866698491567167,0.5861986178563504,3.227233653426522
37,2.670819885205944,0.5863653700128104,3.1279129145682534
38,2.6550065731227392,0.5863849427099154,0.7851671504203669
39,2.637113328932878,0.5862302646181144,3.9831469789526732
40,2.6165549787897033,0.5858208522385793,3.166394510472289
41,2.593149483063045,0.5850533613588539,2.6379189102528735
42,2.568396157091957,0.5838929827812663,3.3375802235421355
43,2.545427211694602,0.5824962380608204,1.3011581478818188
44,2.52633445801442,0.5811012852168949,3.2018108757747323
45,2.5102578024084847,0.5797623969935379,2.380506105554499
46,2.4945800990988936,0.578312421115858,1.0592874550582358
47,2.4808950295641043,0.5769305340270171,3.9262093309197095
48,2.472992461945589,0.5760833225846421,1.1066586450476263
49,2.473767392534037,0.5761679924957377,0.9800833695702696
50,2.48583765905914,0.5774421080285934,2.7701347902994473
51,2.5045620243202436,0.5792520772544085,3.283024155172666
52,2.5239545689677874,0.5809125473488058,4.372768300793712
53,2.5424371720734746,0.5822917905647745,0.853399111193815
54,2.5600286940310077,0.5834197885837158,3.9338400739147095
55,2.577060506839176,0.5843398838668973,3.052490337795087
56,2.591842555945706,0.5850010537017255,4.933054116709163
57,2.6056050306467218,0.5855017179137479,1.7609056790009658
58,2.621274249435277,0.5859367367813006,4.538520937211643
59,2.6367103547612167,0.5862246197574864,1.2191782271169025
60,2.6499817998677426,0.5863604627085016,3.0338881183365065
61,2.6629652249149234,0.5863934203714205,6.561914160496351
62,2.6689767292593807,0.5863752008322516,1.9065527595899854
63,2.665136571702483,0.5863892842406447,4.300707708328422
64,2.6619203965887377,0.5863944253895862,0.6063177631684025
65,2.6474910790368122,0.5863428401789926,1.2588411740792136
66,2.6104271091197435,0.5856509094348025,4.946530779879473
67,2.560391675060469,0.5834411635753337,1.6193058997922827
68,2.5196527355555696,0.5805630410339555,2.4372846807977937
69,2.4887049016432856,0.5777324100380316,3.310671246655965
70,2.4520147013690483,0.5736599984347553,1.5250831841138304
71,2.407870168257114,0.5677373508020416,1.5098701835324684
72,2.3654345961282366,0.5610010401299642,1.6820723940776952
73,2.330494956036806,0.554695847538148,2.0571192553818
74,2.3049278280499617,0.5496525371452223,4.199461863945026
75,2.2899037170941674,0.5465211029645207,2.284999066276599
76,2.2825976837309145,0.5449537014910509,4.4014166062704
77,2.2812700962201773,0.5446657616526188,2.820423492683076
78,2.2789794707517395,0.5441666921617347,1.8000943869424728
79,2.2693714354757977,0.5420422690546075,3.537234439271576
80,2.258680545349744,0.5396196109945934,-0.6093401592333579
81,2.257834434588361,0.5394252367724637,3.6091295272967416
82,2.272913651661281,0.5428313186940175,-0.5026410221970802
83,2.3024613197727937,0.5491469432746257,4.251921661841915
84,2.3393921934625577,0.5563660155597818,0.7878438272283236
85,2.375916955869643,0.5627594696669708,2.5924232458203758
86,2.408533247354075,0.5678345273976403,3.2300742227966173
87,2.434192924600283,0.5714028753881379,2.166328334025952
88,2.4490232244548986,0.5732938346814886,3.745495081640541
89,2.4543595856608182,0.5739434287620162,3.218519140722553
90,2.4592786182118167,0.5745277452186419,0.49158023002618895
91,2.469635344507178,0.5757125246317053,4.059580159147241
92,2.483902597717494,0.5772435041617365,3.726391962348172
93,2.4955497696293736,0.5784062302270266,3.263347861724683
94,2.5002809250162774,0.5788561358758135,0.9530815173484891
95,2.498143289348002,0.5786544630156492,4.522062419037592
96,2.4910479393557203,0.5779661111206731,2.5621631562249307
97,2.478395263716372,0.5766664348038502,3.9140000717077843
98,2.459598581225271,0.5745652712376544,2.8000016101825214
99,2.436697348099074,0.5717310365416078,1.205250422720425
100,2.4135551348629645,0.5685623941907126,2.2182859077431476
101,2.392923546430943,0.5654807229434251,2.0358514611343446
102,2.373904693862152,0.5624267000356649,1.630191459887598
103,2.360364984841222,0.5601284788790503,3.031170661040832
104,2.359938424616329,0.5600544041268408,3.7371294408835793
105,2.367995484430951,0.5614363301814326,2.323852295193463
106,2.37687657469051,0.5629173603433311,2.213523719159215
107,2.3806638151729627,0.5635354318322346,3.1503835264339206
108,2.3786536357872485,0.5632083797970256,3.5220609579868327
109,2.370481620277577,0.5618553917873379,2.463012106558757
110,2.353883865871155,0.55899201160617,1.5756581583259668
111,2.33128443060756,0.5548458230280214,1.8961119905388006
112,2.30934235470306,0.5505490926655329,3.0906234530453713
113,2.2938284286867487,0.5473510525242702,1.559198248422594
114,2.2867514104121267,0.5458483953055767,3.7733706474853994
115,2.2878882340203175,0.5460916211030606,2.3114247844302303
116,2.296392498016617,0.5478887177258573,2.3035121926064295
117,2.310117294204325,0.550705370233081,3.2330904396993008
118,2.3269237815316903,0.5540131183531215,4.136570326891976
119,2.3435700510027777,0.557135084976013,2.1554530028303915
120,2.356177208148472,0.559396837013285,1.9821601665298991
121,2.3644019109762033,0.5608244671296614,4.083901143519205
122,2.3710743022365284,0.5619547813834153,1.6920999608391003
123,2.377161023305556,0.562964062440894,2.6905242057704597
124,2.384561344564676,0.5641630628143776,3.205894233646739
125,2.395900316104704,0.5659402437680481,3.265483575017133
126,2.4104062189742277,0.5681076693046624,2.2379275851993716
127,2.4251407378313243,0.5701868709436502,4.0990462919180946
128,2.43810810778229,0.5719143132554916,1.9102961185194436
129,2.4505790022216907,0.5734849059803152,2.790193015678275
130,2.46217957362927,0.5748658248180254,5.4135732861156
131,2.471770523599991,0.5759491092157542,2.2876290301218973
132,2.4776723588162435,0.576589388402987,-0.1782812693127578
133,2.4783485999991095,0.5766614705349146,1.4580837291089113
134,2.4733719020495992,0.5761248239257178,2.162882089777178
135,2.463840328830013,0.5750571931438528,2.4856119561091568
136,2.4511760303464447,0.5735578608747904,4.0097031830348175
137,2.4373945396102705,0.5718217533629918,2.403959237352645
138,2.4260423839848597,0.5703100882589988,4.016772208156851
139,2.420711930119773,0.5695749097268974,0.2850322440964321
140,2.413689759851724,0.5685817093217737,3.809266151094431
141,2.392915601534584,0.565479489791566,5.265397387137418
142,2.3649772220848826,0.5609229101236887,3.0397888502651345
143,2.3374241148844797,0.5560003615912815,-0.5835952909623827
144,2.312141741448979,0.5511120680819651,4.4459431995926275
145,2.2862329587406234,0.5457372372449993,1.1331259774957851
146,2.261592850129843,0.5402856910160354,3.0490995536103207
147,2.240258210358914,0.5353003871447173,1.175950074387694
148,2.2204964736426507,0.5304652147942892,2.626947024114492
149,2.201120680168942,0.5255233353619273,3.344242767594186
150,2.183243345131391,0.5207886102450765,6.052019854720344
151,2.1703707223413593,0.5172761994436409,-0.4337013259463169
152,2.166466506356963,0.516193931273132,-1.0369947835358668
153,2.174470624382282,0.5184042249884179,5.395588534495403
154,2.184839772124514,0.5212182066782692,2.3455705389008825
155,2.188220141923814,0.5221234741311862,2.718815662794467
156,2.189408030954519,0.522440176223804,0.6262494452707376
157,2.1934002905092274,0.5234991444468521,2.5724971502469094
158,2.1985796753066382,0.5248605675221606,3.438254307545154
159,2.1984434762074616,0.5248249471140493,3.85928735428493
160,2.1914618482828816,0.522986003304033,3.605817954338195
161,2.1795989119708286,0.5198029262478548,1.288952316724533
162,2.164694075611778,0.5157000067929499,4.77569808424164
163,2.147188186403615,0.5132251763731248,2.90369709824179
164,2.12802044474996,0.5196577111218178,2.571043715626041
165,2.1092404138174268,0.5257749844366693,1.0372642943297177
166,2.093868344327609,0.5306442589155406,3.128044662508313
167,2.089362270544714,0.5320478936090103,2.6098849234223684
168,2.098597327433459,0.5291596015949646,1.8512891456640044
169,2.0903160015028965,0.5317517082835522,4.755666650662564
170,2.072543658045604,0.5371912277044468,3.1982574733581743
171,2.061583031701567,0.5404614287812471,0.49477742567788074
172,2.0590233777671223,0.5412157869189868,3.5476571833248594
173,2.0622618406568374,0.5402607820731268,0.9103900584053566
174,2.068435932026634,0.5384243866763938,2.5870122390434678
175,2.073678947754628,0.5368488086513405,1.3665012817760316
176,2.0792918554558866,0.5351457196246406,-0.027412407115821533
177,2.0859537324453687,0.5331024726576487,4.715307039013291
178,2.0871107790600045,0.5327451838950831,3.141224890617583
179,2.0833908177295157,0.53389134273005,1.0289536319224126
180,2.0841001850851737,0.5336733488673753,0.8120252453769699
181,2.0944140109252216,0.530473552707355,4.188296095912616
182,2.1122263838995217,0.5248146984551504,4.256384052104061
183,2.1309896327625424,0.5186737140597928,0.9765971486865372
184,2.144048749835276,0.5142917211275156,5.470811675842286
185,2.1502035779664723,0.512196010139473,1.7083776102972197
186,2.150613503674972,0.5120557409131051,0.24412497186321835
187,2.147650955433886,0.5130675341901741,3.4016802230887726
188,2.1460528556277376,0.5136114609280821,2.510341261844427
189,2.147089249997426,0.5132588647816342,0.14909340959780956
190,2.1531913605683397,0.5124552331225224,3.8014304751708528
191,2.1668705831017094,0.5163063086799211,1.3049220992622526
192,2.1858623689000884,0.5214926882484731,0.2974696096013976
193,2.2050212149434056,0.5265341045936758,3.6288445235775924
194,2.2187612408210278,0.5300307279032028,1.1050943597621263
195,2.2251606928372625,0.531625173454035,2.1052883490406606
196,2.226124704102227,0.5318634749234231,1.8246379282870775
197,2.2248661504106244,0.5315522646661995,2.842459379708232
198,2.2214337913968194,0.530699246505303,2.1615142393502116
199,2.2149786544140007,0.5290780723425639,3.454970949731421
200,2.207859135188329,0.5272644784492548,2.1418419303096377
201,2.2035337030995588,0.5261495807652513,4.1769628568371635
202,2.2035417190219087,0.5261516560127536,0.012116797075566996
203,2.206869465414806,0.5270102566243836,4.534021716599535
204,2.209073390021462,0.5275756851137441,4.332112840378388
205,2.2163460267074564,0.5294233234485132,1.770370535908096
206,2.2323397567781713,0.5333879472862526,2.54969550273588
207,2.2562564736219195,0.539061705459532,3.0033768019636424
208,2.2839663431732142,0.5452495438902982,3.749942237925838
209,2.3074083210542007,0.5501576252583904,-0.027049866591104667
210,2.3171548900000962,0.5521094506782973,0.43482970671171317
211,2.3112865033526684,0.5509405319414579,3.1940927453596872
212,2.293680658269664,0.547319956524515,0.7681852594963814
213,2.272727810312913,0.5427900906429903,3.0889894652748264
214,2.2520472362231962,0.5380854163570097,3.999739808583761
215,2.2329235355917874,0.5335300831079537,3.265260113605752
216,2.217281685564726,0.5296589998196211,3.967824124852898
217,2.2064010130732927,0.5268897427337206,0.9657193700653622
218,2.2011802676583603,0.5255388368075592,3.609272785710831
219,2.1998866072117793,0.5252018768370786,3.5130515501554247
220,2.199434279369811,0.5250838515019322,0.08643696216075131
221,2.197209342717815,0.524501738143403,1.4363038286206402
222,2.193387570061643,0.5234957835212356,3.4601398060802997
223,2.1903917076944643,0.5227018754721061,1.100697411661195
224,2.188348191645026,0.5221576487965464,4.374999950608346
225,2.183526658463589,0.5208649463992531,5.12311390984871
226,2.1738381509942957,0.5182307775474108,0.2671922640012261
227,2.161804821868638,0.5148913842632585,3.6104627896118444
228,2.151893471234419,0.5120848496730085,1.8660679721177182
229,2.145208370745278,0.5138983588435414,5.065787131774037
230,2.1408240708914996,0.515381947538168,-0.11448303406268089
231,2.1358928049146355,0.5170387832078432,3.368490982213925
232,2.129322688644188,0.5192267074352397,3.5044323667957133
233,2.121443449156118,0.5218210196782266,1.2559943653276455
234,2.1126477706316567,0.5246788037979003,2.988103826905076
235,2.1088525197701844,0.5258993870435462,1.939717122277091
236,2.1159295018041204,0.5236172792178656,1.7157142733392998
237,2.121991100919656,0.5216417460317226,2.3553433460496
238,2.112254736362897,0.5248055578820824,1.7779828997457718
239,2.1010244095024024,0.5283930253234016,3.7064500936430784
240,2.096015350387248,0.5299716783349373,2.646478138807275
241,2.094478134158345,0.5304534820382166,4.239472750684003
242,2.093933755408463,0.5306238040624525,3.2233405406686817
243,2.092861171239521,0.530958927708424,2.6515618958430127
244,2.0745473830163528,0.5365864094743644,4.779035001112473
245,2.0309814843581733,0.5492467679670867,3.0754040168630548
246,1.982463098193039,0.5621185654856558,0.6914339607657431
247,1.9431469049516032,0.5715799522215771,4.685767951150755
248,1.917972882637576,0.5771749955940282,2.2421256476986002
249,1.898737446534383,0.5812038314280282,4.485752180583795
250,1.883034282836693,0.5843334699158668,4.018343872099331
251,1.877787825746679,0.5853470135230929,1.361128000410109
252,1.8914931498674652,0.5826654736426481,5.0767129276595755
253,1.9220768081596253,0.5762877409911776,0.41178408292380797
254,1.958271245946135,0.5680440848954135,1.4672959431370893
255,1.9894018761848669,0.5603581254136756,2.0079876046832776
256,2.018381123009909,0.5527151515347066,4.828698124622281
257,2.053173711043469,0.5429264284028199,1.0220451185384773
258,2.0920477848561174,0.5312126590508549,1.3059985386341486
259,2.1222604479293765,0.5215535179673555,4.282738991284821
260,2.139632819778525,0.515783340695004,4.046030394063034
261,2.153158341740949,0.5124458211169785,-0.6217828242607188
262,2.168125993543474,0.516654911805268,3.7402314578224827
263,2.184330512273115,0.521081309746928,2.4156565669827237
264,2.198517884629616,0.5248444084960325,0.5325132044672628
265,2.2066025120643724,0.5269415944683605,3.567235428043244
266,2.207218220241679,0.5270999020741831,-0.43812879371786667
267,2.2015621230195537,0.5256381306467517,2.4384303522462836
268,2.191491866925152,0.5229939647736349,3.059204781337811
269,2.1802433302542448,0.5199777203245738,2.283261750175135
270,2.1547262817926764,0.5128921450712064,5.12511729131193
271,2.1105111452386325,0.5253668905562425,1.642770907086132
272,2.0879298613688233,0.5324918252156517,3.502917543557073
273,2.0698589001633008,0.5379982322674356,6.346888591114515
274,2.029316070344963,0.5497102041173306,-0.5238295917466869
275,1.9855809738970465,0.5613308712617502,3.080526456172587
276,1.9662410479146804,0.5661285250872382,2.6098740169106627
277,1.972113310636801,0.5646940980898467,1.0639326865280694
278,1.9900463421903958,0.5601932471111082,5.494854720946764
279,2.0159811170420494,0.5533658463252072,2.8905330764466832
280,2.0331583755597897,0.5486387058043672,3.4605712795346295
281,2.0483238284855205,0.5443306148965973,1.3562658734116515
282,2.0619535538884226,0.5403519383167221,4.8888025939367035
283,2.0714459008854464,0.5375216680071996,2.242671037581594
284,2.079229611495917,0.5351646984596711,2.0399641868056877
285,2.074280069640916,0.5366672217816412,1.2003530105293767
286,2.0548105320317847,0.5424496356934824,5.020992862706881
287,2.035506440112696,0.5479799159594859,1.4306412711036613
288,2.012808363052163,0.5542211575825726,3.3784208970421634
289,1.9916638172324117,0.5597784123967516,0.17496751624698126
290,1.9789893796744205,0.5629897233187805,3.5819617764015335
291,1.977341952041473,0.5634004998411888,2.7923874247370164
292,1.9877778637974919,0.5607725756610327,0.3112748878139781
293,2.0055844538421903,0.5561477537432878,2.6124285507144145
294,2.021283091851911,0.5519241117568879,4.296023266577295
295,2.027529201020328,0.5502057421839539,1.8883177711562034
296,2.0268133580544245,0.5504037683719478,2.862706535847932
297,2.0297748648983998,0.549582687075915,2.627329448965721
298,2.03250319656822,0.548821987912796,2.6411659185463705
299,2.027395455607951,0.5502427620741019,3.3074107204414256
300,2.020684266139039,0.5520877248473396,2.2884068582640604
301,2.0209188102566173,0.5520236655299011,1.294071889965355
302,2.0322345691133226,0.5488970666220488,2.769957451737073
303,2.0522115323202224,0.5432060245125342,2.672738793028252
304,2.0742194771940734,0.5366855343345428,2.242573035034058
305,2.0944235080293225,0.5304705802369799,2.1150189049928105
306,2.1171303699318536,0.5232274307029713,3.9703279336390462
307,2.1397044213394625,0.5157592351524163,0.5108182995612174
308,2.1570057309664428,0.5135387552440263,3.649933623625168
309,2.171148286493593,0.5174908030930438,2.596585463610323
310,2.1833329761107807,0.5208127650033044,0.3285323671422595
311,2.1935179231713633,0.5235302206781767,5.159678654966482
312,2.1697045958053747,0.5170921032627588,2.7667349935497874
313,2.1189912701748708,0.5226218197062286,3.7096369252752144
314,2.062402050837585,0.5402193068245009,3.5209820162678453
315,2.0055418682392605,0.5561590252521624,3.5105871298642715
316,1.9496790283457015,0.5700688228083535,2.0181892118275324
317,1.9019533805753912,0.5805451897123994,2.64067497407132
318,1.8714029674144506,0.586558742817674,2.0523529495874646
319,1.8584834809355646,0.5889374301730201,1.0600374617498791
320,1.8567887899172721,0.5892421658025566,3.6313420639151492
321,1.8592405266658818,0.5888007532580657,4.074354449809716
322,1.8610561764854026,0.5884715811017984,1.628715451202125
323,1.8560542199054693,0.589373728885321,3.908774127734822
324,1.847860667738026,0.5908196384587038,2.0815755928441635
325,1.8391331204910482,0.5923161536566166,0.6878163480144612
326,1.8265539631465488,0.5943937009810412,4.841075433924492
327,1.8084814795880744,0.5972138036671725,1.970913615694427
328,1.787622790232464,0.6002261433228654,4.571656947794563
329,1.7666317769333384,0.6029939600577718,0.5397931431680324
330,1.7516730015752013,0.6048043207829473,2.3875633812573667
331,1.7483794020874854,0.6051847578279996,1.3783048522268664
332,1.755712379993752,0.6043287833991133,3.3575446262628565
