,Interferometric Phase,PTI Signal
0,2.60007564876126,1.128876066394441e-06
1,2.5515598453177146,1.0501193823584649e-06
2,2.516597994245144,1.4028551632641958e-06
3,2.4932118640395977,2.0225702784686785e-06
4,2.476150929971477,1.0436578537393829e-06
5,2.460217056368555,8.340647853135271e-07
6,2.452751468462192,4.153974339896937e-06
7,2.4565850804752887,-4.68861079913272e-08
8,2.473313338972979,1.2926916816706867e-06
9,2.509209501843533,1.5497245791374e-06
10,2.5653696876106804,1.8757219823400016e-06
11,2.635444608129512,2.301674698899453e-06
12,2.707658781125776,2.846816846048678e-06
13,2.7678002542341145,2.112172205487193e-06
14,2.80720048721642,1.0142299880434974e-06
15,2.8300527199960603,2.5238307563731786e-06
16,2.8436524939913177,1.2841951556208532e-06
17,2.856444640590008,3.0272148748498497e-06
18,2.8739190504818724,8.802130200089215e-07
19,2.892327651445197,1.639651632667715e-06
20,2.90544121954144,2.7386837483055037e-06
21,2.9106575349511337,2.177007847897813e-06
22,2.9022813589256566,2.7090122171001443e-06
23,2.8785440106079405,1.2354830865240575e-06
24,2.8429758597967396,1.52966734896739e-06
25,2.8053473554449924,2.5786381739396273e-06
26,2.777954027371062,-6.33589178860578e-07
27,2.7546785381545242,3.2127960496240616e-06
28,2.7301954259696424,7.873383045615548e-07
29,2.710312164214398,4.263328878934787e-08
30,2.6976798963198942,9.08492194591703e-07
31,2.6911897688909536,1.7816257430106763e-06
32,2.6916899262457874,2.3354864441242215e-06
33,2.702459167105177,2.66274813532637e-06
34,2.716531089268696,2.630521479365909e-06
35,2.7232839555301367,3.0644887795529856e-06
36,2.7170150032157006,2.338546019332187e-06
37,2.7028799187630703,2.2461151886862623e-06
38,2.6870145807504247,2.290709647579784e-06
39,2.6711777966091117,5.692571437309646e-07
40,2.653247477176721,2.6178867206560076e-06
41,2.6326329227404566,2.26744799488069e-06
42,2.6091452476202592,1.786122754240661e-06
43,2.584283190883494,2.299653589494334e-06
44,2.5611935791934872,8.123350258087307e-07
45,2.5419864999372352,2.0139451162490002e-06
46,2.5258035163091064,1.7836003539814705e-06
47,2.5100139582326833,5.192560661932558e-07
48,2.496224187577354,2.628376155732144e-06
49,2.488257746312244,8.02451645413685e-07
50,2.4890391909946215,5.026172678353381e-07
51,2.5012046528227567,1.8968543529406364e-06
52,2.5200666404612724,2.37130029869447e-06
53,2.53958975901394,2.8335615085439624e-06
54,2.558183936857043,7.026389268784168e-07
55,2.5758703228475706,2.655837809931151e-06
56,2.592984361344174,1.8606649880135814e-06
57,2.6078294887910207,3.3937944686254363e-06
58,2.6216436434782238,1.1839740127061785e-06
59,2.6373634390574403,2.9608130942103174e-06
60,2.652840667446319,9.796400023012074e-07
61,2.666141547185608,1.8725885597828568e-06
62,2.679146757697702,4.381414849749858e-06
63,2.6851663691973795,1.3574683548812032e-06
64,2.6813199983121856,2.9548810374004615e-06
65,2.6780973809544166,4.798275238313907e-07
66,2.6636415716307282,7.459971756755404e-07
67,2.6264787447293196,3.4351129455049542e-06
68,2.5762317454130033,1.3308486134866586e-06
69,2.5352552407680005,1.5731455619510251e-06
70,2.5040883338220135,2.1155008171857363e-06
71,2.4670961533846163,1.2216159730481842e-06
72,2.422527899409618,1.139809871595096e-06
73,2.3796246564141166,1.0889448862591284e-06
74,2.34425776802865,1.3361266740646847e-06
75,2.3183556709993787,2.8507767046732405e-06
76,2.303127241071736,1.4751667541471575e-06
77,2.295720386302296,2.7991110157702137e-06
78,2.294375485924695,2.0379708711761216e-06
79,2.292054065985932,1.1718247408192182e-06
80,2.282310329293917,2.6344823175294846e-06
81,2.271461392205778,-3.559347733246837e-07
82,2.2706043423985633,2.4141507245084185e-06
83,2.2859083431814318,-2.4795153968394e-07
84,2.315869505347663,2.717995235706363e-06
85,2.353281914830251,7.214367579456499e-07
86,2.3902430107138497,1.7297349973149672e-06
87,2.4232126633065123,2.1630955598150873e-06
88,2.449124887953993,1.6578100066461761e-06
89,2.464090712520973,2.3727066652575727e-06
90,2.4694734849799325,2.466615168139326e-06
91,2.4744336701170155,3.3519036201806156e-07
92,2.484876739466651,2.6200276893933412e-06
93,2.4992569110186666,2.491669875748878e-06
94,2.5109900606069284,2.2639004794901773e-06
95,2.515752291403823,6.746672691990297e-07
96,2.5135974569468935,3.0361155071103227e-06
97,2.506448456355514,1.6173680852515604e-06
98,2.4936970997244807,2.5134492970825285e-06
99,2.474744166605637,1.994972432187883e-06
100,2.4516366898618376,7.806559179104209e-07
101,2.4282688046380523,1.4568166058597265e-06
102,2.4074208457577533,1.61804718858104e-06
103,2.388189810434406,1.1760591183064737e-06
104,2.3744916050384033,1.8727107599976496e-06
105,2.3740600639468727,2.634462681259258e-06
106,2.3822124552565396,1.7451082957792988e-06
107,2.3911950934550825,1.5151657963491054e-06
108,2.395024713815716,2.020811828229339e-06
109,2.392991903701797,2.315379691093829e-06
110,2.384726804515132,1.8597701606454945e-06
111,2.3679335281088587,9.697262079374168e-07
112,2.3450548772184368,1.0572984575931677e-06
113,2.322827772669021,2.2294626222964037e-06
114,2.3071042409300406,1.1325718429823084e-06
115,2.299929955328228,2.3985717776512445e-06
116,2.3010838175987347,1.4946053650646967e-06
117,2.3097065265006673,1.5441690915360147e-06
118,2.3236178717331573,2.1215608782767963e-06
119,2.3406456163224427,2.838677985577411e-06
120,2.357502849872051,1.6250329860107083e-06
121,2.3702640901214314,1.0482081184714386e-06
122,2.3785867344484566,2.871148100393703e-06
123,2.3853381114422354,1.130701537713959e-06
124,2.391495289415651,1.6496512237916982e-06
125,2.39897887464241,2.127600424623348e-06
126,2.410442354519458,2.3265872575884106e-06
127,2.4251016156398584,1.2654184811936241e-06
128,2.439984442673467,2.885609297374548e-06
129,2.4530761276085697,1.5567866553146484e-06
130,2.46566139777852,1.6271086647658058e-06
131,2.4773631353719,3.688263825733771e-06
132,2.487034690130341,1.6342027678416373e-06
133,2.4929844908817014,-1.1204312850690873e-07
134,2.493666653400116,9.486958184220649e-07
135,2.488650630477657,1.430302801669152e-06
136,2.4790410214440155,1.6612957619377515e-06
137,2.4662685952356194,2.636735532893048e-06
138,2.452361921420417,1.5798515381830234e-06
139,2.440901076466752,2.7827658069735307e-06
140,2.4355180973754647,2.2985441474537317e-07
141,2.428425371443621,2.444581623311068e-06
142,2.407433059265274,3.5806714147409537e-06
143,2.3791805062274407,2.0085235551870786e-06
144,2.3512940225866426,-3.961275809427226e-07
145,2.3256851084193686,3.0040658264027524e-06
146,2.2994226323322717,8.049415289624178e-07
147,2.274424846259194,1.936001482463881e-06
148,2.2527700238343042,8.975722926035331e-07
149,2.23270040367783,1.6120679608993993e-06
150,2.213012968850808,2.1269608789318475e-06
151,2.194840814918013,4.193990462990088e-06
152,2.181752329380972,-1.4988445356391223e-07
153,2.177781405003747,-7.609008249740985e-07
154,2.1859208469039877,3.566081884456513e-06
155,2.1964634162475223,1.606949529086357e-06
156,2.1998997525993635,1.941190378230063e-06
157,2.201107345627567,5.052634250650193e-07
158,2.2051646466398807,1.932924685087697e-06
159,2.210428354474004,2.170489646313525e-06
160,2.210289323671629,2.9134947556148242e-06
161,2.2031935571872303,2.5715015155712585e-06
162,2.19113410101471,7.619738841362529e-07
163,2.1759778176151103,2.985070883704398e-06
164,2.1581702637762716,3.891290176722379e-06
165,2.13866595064794,2.069395401567298e-06
166,2.11955000855754,5.987236590855906e-07
167,2.1038985106924746,2.30335830953138e-06
168,2.09930987455677,2.023565896149581e-06
169,2.1087145585875566,1.1715047046388929e-06
170,2.1002809955099035,3.204124656168259e-06
171,2.082178183689867,2.443923398336288e-06
172,2.071011167693814,4.1796313137183507e-07
173,2.068402908831505,2.2008995668318625e-06
174,2.0717020940399493,7.717370488966159e-07
175,2.077992623678934,1.949259494463188e-06
176,2.0833338192398267,7.154510879546868e-07
177,2.0890510503051734,1.8543654940700767e-07
178,2.0958358824623073,3.3376142391904e-06
179,2.0970144899081267,2.15760296001221e-06
180,2.093225153976444,6.970521258050647e-07
181,2.093947629781909,3.6017770124292816e-07
182,2.1044516930508,2.7566515378615893e-06
183,2.1225882106111458,3.066746627917389e-06
184,2.1416866237090466,6.837667913947801e-07
185,2.1549749690538977,2.7157494581482025e-06
186,2.161236777256549,3.928445879950401e-07
187,2.1616536634549206,1.6249305915823074e-06
188,2.1586386531408173,1.8825880057037124e-06
189,2.157011559060149,3.854860182514659e-06
190,2.1580648169346155,2.3985164852646747e-07
191,2.1642714116302315,2.4133661194977077e-06
192,2.1781838730008825,1.1972462285840694e-06
193,2.1974937458751707,2.112724483207396e-07
194,2.216965277173461,2.6347338602899783e-06
195,2.230924603949154,9.881579027385245e-07
196,2.2374243036629564,1.2647515850694095e-06
197,2.2384035638418407,1.1041106606864993e-06
198,2.237126379088648,2.153252007937729e-06
199,2.233641134780255,1.5511282834215646e-06
200,2.227084818569518,2.4308341647512754e-06
201,2.219851945542416,1.285522207453409e-06
202,2.2154574706190115,3.016819387616875e-06
203,2.2154647061178916,-1.2791698478639352e-08
204,2.2188454354757674,2.8071089024858036e-06
205,2.2210842717487873,2.995492504688944e-06
206,2.2284720092861194,1.2604456028797812e-06
207,2.2447158046687585,1.4299671862512923e-06
208,2.2689950210393617,2.039284819980464e-06
209,2.297107696216578,2.448639601316239e-06
210,2.3208713140739063,1.3614004098987024e-07
211,2.330746702619594,1.2152009498380303e-07
212,2.3248008611655697,2.1302717547373244e-06
213,2.3069566746383527,7.669144014697489e-07
214,2.285709040178417,1.9782348824029697e-06
215,2.2647222754408194,2.498735748426846e-06
216,2.245308173162704,2.4120893941657123e-06
217,2.229421525850156,2.7766112526668423e-06
218,2.218367208741941,7.376920768229384e-07
219,2.2130619305717483,2.520055720115955e-06
220,2.2117469507381413,2.326657401152274e-06
221,2.2112869816635827,2.867094906038696e-07
222,2.2090261317977764,8.938696267793398e-07
223,2.2051420458891102,1.9651974030427127e-06
224,2.2020968162086887,8.929429798787777e-07
225,2.2000198392369157,2.856244549930102e-06
226,2.195118960064984,3.480595020328632e-06
227,2.185269835089761,5.491587560307218e-08
228,2.173033838050384,2.6367745738159798e-06
229,2.1629534550030223,1.0750786214251302e-06
230,2.156153505261205,2.013360279166043e-06
231,2.1516933598089207,2.9893977677508085e-06
232,2.1466762432747846,2.072520210543613e-06
233,2.1399902082862328,2.5887720793668573e-06
234,2.131971230243655,9.230882453208367e-07
235,2.123017635289699,1.8836084383324062e-06
236,2.1191537845915374,1.5442430678135282e-06
237,2.1263584102012953,1.5618592845865148e-06
238,2.13252940942786,1.1564760269954229e-06
239,2.1226195454596266,1.4126520074416507e-06
240,2.1111852965630384,2.512227224334259e-06
241,2.1060844106887355,1.7602827091028209e-06
242,2.104519170286972,2.825666284067427e-06
243,2.1039645372226294,2.2833003283430146e-06
244,2.1028718601270313,1.7808454403311302e-06
245,2.0842186750523544,3.0396534277677143e-06
246,2.039826346525816,2.3342814959059565e-06
247,1.990359678223254,2.0371974272326962e-07
248,1.9502619613063679,3.2777570680757666e-06
249,1.9245828653473231,1.8014247589365358e-06
250,1.9049593304346566,2.8576485510145326e-06
251,1.888939006910843,2.922397180016589e-06
252,1.8835863752382236,1.0111929588835712e-06
253,1.8975684305535,3.389781085463745e-06
254,1.9287686219874574,5.409459645729704e-07
255,1.9656874793379377,7.892721385410763e-07
256,1.9974344159582091,1.4125016761244117e-06
257,2.026978838547064,3.352995734403008e-06
258,2.062441281593698,5.857473705609108e-07
259,2.1020408008615177,1.2538211874393853e-06
260,2.1328002098129915,2.9007501513620155e-06
261,2.150480082146367,1.9489959838524165e-06
262,2.164240385125151,-3.5350399998208286e-07
263,2.179464036346283,2.714430149172376e-06
264,2.1959408450282996,1.734774033640765e-06
265,2.210361605301366,-3.186814662815426e-09
266,2.218576205347194,2.4503403685480002e-06
267,2.219201418056655,-3.2860440877577484e-07
268,2.2134538430032826,1.6602382703131203e-06
269,2.2032183754699397,2.210177638707247e-06
270,2.191784447252861,1.635985703094871e-06
271,2.165836071126946,3.2966373031460965e-06
272,2.1208405821809477,1.345822580902235e-06
273,2.097847770288598,2.2439851792744367e-06
274,2.0794418387456175,4.1352521123592165e-06
275,2.038125150424477,-2.264504984892422e-07
276,1.9935379525105816,1.8864392659550986e-06
277,1.9738151413379135,2.0707769307346004e-06
278,1.9798034995307388,6.709308901895329e-07
279,1.9980902133214897,3.6539757125670984e-06
280,2.024530991930432,2.2009223914928364e-06
281,2.0420422272538685,2.1872510827225945e-06
282,2.0574971279086673,9.801512073032923e-07
283,2.071384204225802,3.3780509213317117e-06
284,2.081054472092514,1.425771304551011e-06
285,2.088982948999515,1.5720846826945974e-06
286,2.0839412480461164,7.612218950961252e-07
287,2.0641055002581647,3.6957209086523256e-06
288,2.0444294021713687,9.161271289999489e-07
289,2.0212940961729253,2.2440677486484174e-06
290,1.9997372655973475,3.654811976043863e-07
291,1.986813496268066,2.22152408480041e-06
292,1.9851336281706717,2.0333636758751434e-06
293,1.9957756384103114,3.8541505022513967e-07
294,2.0139318649171862,1.4330091305674172e-06
295,2.0299353931339845,2.9205883328369554e-06
296,2.03630167215739,1.1664679746300801e-06
297,2.0355722302761765,1.821206697476343e-06
298,2.0385908161203754,1.964807841088833e-06
299,2.041375073028436,1.5645223289815927e-06
300,2.0361658320373692,2.186805037116801e-06
301,2.0293247992595003,1.6942846226426629e-06
302,2.0295641117119008,1.050858566925096e-06
303,2.041101779973915,1.814116516121872e-06
304,2.0614607952581583,1.6943498390056017e-06
305,2.083882887019358,1.6213599216915154e-06
306,2.1044607467737086,1.344871391040567e-06
307,2.1275794063463915,2.8535193866086776e-06
308,2.1505531082340927,-8.877172726606929e-07
309,2.168153612825748,2.4205970204772954e-06
310,2.1825361223863564,1.9838374219430772e-06
311,2.1949246969113068,1.4855257867245932e-07
312,2.2052784478078693,3.7014832771772356e-06
313,2.1810695464850895,1.5867452252211013e-06
314,2.1294721085342774,2.70134535945401e-06
315,2.071841016736184,2.1534257635970405e-06
316,2.013886024961376,2.3295447948278667e-06
317,1.956919644105673,1.767084190302828e-06
318,1.9082352543493897,1.5496125521433253e-06
319,1.877067368235838,1.662889022727814e-06
320,1.8638867390866993,8.82437782334298e-07
321,1.8621577980456454,2.3689551752711312e-06
322,1.8646588788254637,2.966498992622517e-06
323,1.8665110189554122,1.1079433743742823e-06
324,1.8614080533868245,2.8403560279736735e-06
325,1.853048862822209,1.2293226914923475e-06
326,1.8441449579995095,2.907722555597187e-07
327,1.8313125104759655,3.475386601190794e-06
328,1.8128760230561127,1.3592157171367213e-06
329,1.7915986617914041,3.0015406329317765e-06
330,1.7701888537158261,4.6552425427905874e-07
331,1.7549333976349895,1.4870291990375776e-06
332,1.7515744024375517,1.1774773960058461e-06
333,1.759052077625588,2.1055811636854874e-06
334,1.7771755519576917,8.295159573030833e-07
335,1.8073047450914739,2.5923052242353918e-06
336,1.839842426497241,8.560456526982089e-07
337,1.87103259682567,1.4856008254037844e-06
338,1.8984376943480359,2.167981797264818e-06
339,1.9184017150340986,9.647851291721902e-07
340,1.9314703248762848,2.432245545488766e-06
341,1.9392678412404099,2.191154593200792e-06
342,1.943865329459401,8.416881949195925e-07
343,1.9473270874552868,2.211415799527678e-06
344,1.9514260289965417,3.5031818517363326e-06
345,1.9559427613403562,2.508011240807898e-06
346,1.958357351857729,8.469072233171509e-07
347,1.9565682986151702,2.368744918533927e-06
348,1.9504590965213404,4.0753288482431317e-07
349,1.946011748841974,9.487453233074288e-07
350,1.9517051059834991,2.482836970489382e-06
351,1.962073395236211,1.1931911030231465e-06
352,1.9609990908000987,5.383883788817597e-07
353,1.955040847706025,2.309464674076687e-06
354,1.9533550946751608,1.5074995846785972e-06
355,1.952646844505965,1.3516109812333443e-06
356,1.938437776386471,2.555539867934392e-06
357,1.9003625619908482,1.2906911047746484e-06
358,1.8428892619558745,2.503227351059837e-06
359,1.7899633939298973,8.539680185488126e-07
360,1.749942725181352,9.771979908980811e-07
361,1.7247982961754464,6.65897872347751e-07
362,1.7141650876491783,2.4685288127464237e-06
363,1.7155266042768447,1.6617331128994685e-06
364,1.7296358598916324,1.4380494044281308e-06
365,1.757514138250363,8.253007072250449e-07
366,1.7975647071521914,1.909640222010174e-06
367,1.8431644410616168,2.8631953951154043e-06
368,1.8818623029671497,2.2314510993547047e-06
369,1.9131896659747591,2.160036074487766e-06
370,1.9410911866538403,1.1544390817671674e-06
371,1.9675144169335894,2.9362732390065494e-06
372,1.9919577338635737,1.8374350138911996e-06
373,2.009913744598421,3.096207681681686e-06
374,2.0197170267100604,1.550084202672942e-06
375,2.020741834610975,2.00505970618463e-06
376,2.0126921761638035,2.9022386200922934e-06
377,2.001324142956513,1.197594418567769e-07
378,1.994106164466361,2.4920058505052825e-06
379,1.9927475688854366,1.8515242184220678e-06
380,1.990152641126618,2.106692544901199e-07
381,1.983929173786081,2.6695882959552217e-06
382,1.9822572422090956,8.829012273982459e-07
383,1.9904275759302452,4.1610232588921544e-07
384,2.003238259723517,2.0371225374256708e-06
385,2.012128377876172,2.6415698732655767e-06
386,2.016275407834225,3.1645259516313946e-06
387,2.021012560061191,2.615767532553249e-06
388,2.0276877735781964,9.990074822960714e-07
389,2.0336304655480655,9.651550540544868e-07
390,2.0347003757675894,7.307281992149133e-07
391,2.025576040282756,3.2724454601097513e-06
392,2.0035132411621728,8.600620001369843e-07
393,1.9704187354679759,1.0491580719805604e-06
394,1.9352259946733752,1.6641338628293421e-06
395,1.9065939410078763,3.6163132946236413e-06
396,1.8867170727365177,-9.280955737938099e-07
397,1.8754989658397698,3.193545928075238e-06
398,1.872182173455791,7.90805784320807e-07
399,1.8771423165019985,1.8779875135131717e-06
400,1.8875258673365904,1.6362508283815458e-06
401,1.8967037343004416,1.892639014406351e-06
402,1.896880660784581,3.415664950653805e-06
403,1.8897373648596365,8.633024057891855e-07
404,1.884481242714021,1.6923304790310419e-06
405,1.888579955191031,2.3140084562766693e-06
406,1.9032851471374523,1.2067167843569218e-06
407,1.9205589289586078,1.9668539217281987e-06
408,1.9326982311246073,2.6933328273737417e-06
409,1.9380325786504062,2.1391202606668083e-06
410,1.9382570617415786,2.174487736021737e-07
411,1.9333882583167896,2.5636763500260845e-06
412,1.9215284521839215,1.8926329398201782e-06
413,1.902545587655511,2.2795121298323465e-06
414,1.8786819811494009,1.743898696296282e-06
415,1.8571519561482432,9.848456545890376e-07
416,1.8379273240629763,3.421295978578112e-06
417,1.8143936639766582,-2.7352323134724987e-08
418,1.7864541133992442,2.9911454592747037e-06
419,1.7639559408840308,1.0106949063092084e-06
420,1.7575981893053585,2.191412786719856e-06
421,1.767950119739764,1.4639799148410462e-06
422,1.7881829874459174,2.0549185967296695e-06
423,1.813009721498092,5.268945524656946e-07
424,1.8393684926363163,2.679830717384319e-06
425,1.8626426196064856,2.9391995618632593e-06
426,1.878728514529615,2.365759552411513e-06
427,1.8854978602528278,1.7297890480428044e-06
428,1.8820030081569294,2.767801567823209e-06
429,1.8692191152201048,1.496827590326305e-06
430,1.855512593553353,1.4229804824790426e-06
431,1.8510969395022943,1.0235953803171941e-06
432,1.8538126046829655,1.4732704728039672e-06
433,1.8480957606681647,1.9387832318961725e-06
434,1.8372628687900827,2.1340065878560882e-06
435,1.8299273147091284,2.068340655467356e-07
436,1.8276705723705469,3.1466383279106005e-06
437,1.828876017580832,2.7105069231211617e-06
438,1.8210488083488692,9.254853775647893e-07
439,1.7888392208415151,3.675256692657763e-06
440,1.739846207831094,9.789545791875703e-07
441,1.6903194428678414,2.422235682405552e-06
442,1.6459003239008938,2.2162988980479606e-06
443,1.6186989411254438,5.439466375933713e-07
444,1.614928343190125,9.366157956743397e-07
